#F2_H
#photon
#GeminiS/Flamingos2 H band: http://svo2.cab.inta-csic.es/theory/fps3/index.php?id=Gemini/Flamingos2.H&&mode=browse&gname=Gemini&gname2=Flamingos2#filter
14613.000000 0.004000
14618.000000 0.004400
14623.000000 0.004800
14628.000000 0.005200
14633.000000 0.005500
14638.000000 0.005900
14643.000000 0.006500
14648.000000 0.007000
14653.000000 0.007400
14658.000000 0.008000
14663.000000 0.008400
14668.000000 0.009100
14673.000000 0.009800
14678.000000 0.010600
14683.000000 0.011300
14688.000000 0.012100
14693.000000 0.013100
14698.000000 0.014100
14703.000000 0.015300
14708.000000 0.016600
14713.000000 0.017900
14718.000000 0.019500
14723.000000 0.021000
14728.000000 0.022800
14733.000000 0.024800
14738.000000 0.027300
14743.000000 0.030100
14748.000000 0.032600
14753.000000 0.035700
14758.000000 0.039300
14763.000000 0.042900
14768.000000 0.047400
14773.000000 0.053400
14778.000000 0.059000
14783.000000 0.065800
14788.000000 0.073000
14793.000000 0.082000
14798.000000 0.092300
14803.000000 0.104000
14808.000000 0.117200
14813.000000 0.131600
14818.000000 0.147100
14823.000000 0.167800
14828.000000 0.187000
14833.000000 0.212500
14838.000000 0.238700
14843.000000 0.267500
14848.000000 0.295600
14853.000000 0.326400
14858.000000 0.358700
14863.000000 0.395300
14868.000000 0.434600
14873.000000 0.466500
14878.000000 0.504000
14883.000000 0.537300
14888.000000 0.569100
14893.000000 0.601000
14898.000000 0.629100
14903.000000 0.652900
14908.000000 0.669800
14913.000000 0.690400
14918.000000 0.700500
14923.000000 0.717000
14928.000000 0.726900
14933.000000 0.730800
14938.000000 0.740300
14943.000000 0.746600
14948.000000 0.745800
14953.000000 0.752100
14958.000000 0.752700
14963.000000 0.756600
14968.000000 0.759000
14973.000000 0.754000
14978.000000 0.756500
14983.000000 0.741400
14988.000000 0.739700
14993.000000 0.745800
14998.000000 0.743600
15003.000000 0.749300
15008.000000 0.747500
15013.000000 0.749400
15018.000000 0.751400
15023.000000 0.756300
15028.000000 0.756900
15033.000000 0.760700
15038.000000 0.756200
15043.000000 0.759500
15048.000000 0.758500
15053.000000 0.756600
15058.000000 0.752300
15063.000000 0.754800
15068.000000 0.753300
15073.000000 0.752100
15078.000000 0.750000
15083.000000 0.748500
15088.000000 0.747500
15093.000000 0.745700
15098.000000 0.744500
15103.000000 0.740300
15108.000000 0.743000
15113.000000 0.739400
15118.000000 0.742900
15123.000000 0.738600
15128.000000 0.742800
15133.000000 0.742400
15138.000000 0.739500
15143.000000 0.743900
15148.000000 0.746600
15153.000000 0.743300
15158.000000 0.744000
15163.000000 0.741300
15168.000000 0.746200
15173.000000 0.743400
15178.000000 0.745000
15183.000000 0.750500
15188.000000 0.750800
15193.000000 0.748400
15198.000000 0.753400
15203.000000 0.753500
15208.000000 0.751600
15213.000000 0.756100
15218.000000 0.753000
15223.000000 0.764400
15228.000000 0.762500
15233.000000 0.760800
15238.000000 0.759500
15243.000000 0.753900
15248.000000 0.753600
15253.000000 0.752900
15258.000000 0.751000
15263.000000 0.741100
15268.000000 0.746100
15273.000000 0.746100
15278.000000 0.744300
15283.000000 0.749100
15288.000000 0.749300
15293.000000 0.754100
15298.000000 0.750300
15303.000000 0.754700
15308.000000 0.758300
15313.000000 0.753900
15318.000000 0.757900
15323.000000 0.757200
15328.000000 0.753200
15333.000000 0.757100
15338.000000 0.753800
15343.000000 0.754400
15348.000000 0.752500
15353.000000 0.756900
15358.000000 0.755000
15363.000000 0.760500
15368.000000 0.761000
15373.000000 0.759500
15378.000000 0.764700
15383.000000 0.765600
15388.000000 0.770400
15393.000000 0.767300
15398.000000 0.771600
15403.000000 0.762800
15408.000000 0.768800
15413.000000 0.771300
15418.000000 0.773200
15423.000000 0.775000
15428.000000 0.777800
15433.000000 0.779500
15438.000000 0.781000
15443.000000 0.786400
15448.000000 0.787200
15453.000000 0.784700
15458.000000 0.789600
15463.000000 0.780100
15468.000000 0.783900
15473.000000 0.787200
15478.000000 0.790300
15483.000000 0.807000
15488.000000 0.809400
15493.000000 0.804500
15498.000000 0.804300
15503.000000 0.806300
15508.000000 0.804600
15513.000000 0.802900
15518.000000 0.801000
15523.000000 0.789700
15528.000000 0.790400
15533.000000 0.790900
15538.000000 0.792400
15543.000000 0.796600
15548.000000 0.800000
15553.000000 0.799100
15558.000000 0.794500
15563.000000 0.798100
15568.000000 0.796700
15573.000000 0.795700
15578.000000 0.794700
15583.000000 0.790000
15588.000000 0.790000
15593.000000 0.789900
15598.000000 0.788700
15603.000000 0.788900
15608.000000 0.788200
15613.000000 0.787100
15618.000000 0.787000
15623.000000 0.785500
15628.000000 0.787800
15633.000000 0.783100
15638.000000 0.781400
15643.000000 0.783500
15648.000000 0.778200
15653.000000 0.779400
15658.000000 0.777200
15663.000000 0.768200
15668.000000 0.766900
15673.000000 0.766600
15678.000000 0.765200
15683.000000 0.767200
15688.000000 0.762000
15693.000000 0.763500
15698.000000 0.758600
15703.000000 0.754400
15708.000000 0.756700
15713.000000 0.752500
15718.000000 0.755200
15723.000000 0.762600
15728.000000 0.759500
15733.000000 0.755000
15738.000000 0.751000
15743.000000 0.744900
15748.000000 0.740900
15753.000000 0.735100
15758.000000 0.737000
15763.000000 0.727900
15768.000000 0.724700
15773.000000 0.725100
15778.000000 0.728100
15783.000000 0.728500
15788.000000 0.731200
15793.000000 0.727200
15798.000000 0.731000
15803.000000 0.727200
15808.000000 0.730800
15813.000000 0.728200
15818.000000 0.728400
15823.000000 0.736000
15828.000000 0.738600
15833.000000 0.734100
15838.000000 0.734500
15843.000000 0.734200
15848.000000 0.734400
15853.000000 0.735100
15858.000000 0.735100
15863.000000 0.729600
15868.000000 0.735500
15873.000000 0.733700
15878.000000 0.737000
15883.000000 0.742700
15888.000000 0.744700
15893.000000 0.746900
15898.000000 0.745600
15903.000000 0.745800
15908.000000 0.750300
15913.000000 0.750800
15918.000000 0.759200
15923.000000 0.776100
15928.000000 0.775800
15933.000000 0.776800
15938.000000 0.777400
15943.000000 0.777300
15948.000000 0.778100
15953.000000 0.774700
15958.000000 0.779300
15963.000000 0.773000
15968.000000 0.777800
15973.000000 0.779100
15978.000000 0.779800
15983.000000 0.777000
15988.000000 0.778300
15993.000000 0.780000
15998.000000 0.784600
16003.000000 0.781400
16008.000000 0.782500
16013.000000 0.787100
16018.000000 0.783600
16023.000000 0.784200
16028.000000 0.785300
16033.000000 0.785700
16038.000000 0.786500
16043.000000 0.790600
16048.000000 0.786300
16053.000000 0.787000
16058.000000 0.790900
16063.000000 0.783300
16068.000000 0.788300
16073.000000 0.788100
16078.000000 0.784800
16083.000000 0.786500
16088.000000 0.787300
16093.000000 0.788400
16098.000000 0.789800
16103.000000 0.793700
16108.000000 0.794200
16113.000000 0.794200
16118.000000 0.790500
16123.000000 0.798800
16128.000000 0.794000
16133.000000 0.794000
16138.000000 0.794600
16143.000000 0.793800
16148.000000 0.790700
16153.000000 0.795300
16158.000000 0.791200
16163.000000 0.799200
16168.000000 0.795000
16173.000000 0.797600
16178.000000 0.793800
16183.000000 0.796200
16188.000000 0.791700
16193.000000 0.795300
16198.000000 0.790300
16203.000000 0.790000
16208.000000 0.793100
16213.000000 0.787800
16218.000000 0.788100
16223.000000 0.790900
16228.000000 0.785300
16233.000000 0.785300
16238.000000 0.787900
16243.000000 0.779600
16248.000000 0.777100
16253.000000 0.780800
16258.000000 0.781000
16263.000000 0.772000
16268.000000 0.777800
16273.000000 0.780100
16278.000000 0.779000
16283.000000 0.804400
16288.000000 0.798200
16293.000000 0.798300
16298.000000 0.791100
16303.000000 0.788900
16308.000000 0.789000
16313.000000 0.782200
16318.000000 0.779800
16323.000000 0.773600
16328.000000 0.769200
16333.000000 0.771800
16338.000000 0.769900
16343.000000 0.765600
16348.000000 0.765000
16353.000000 0.767900
16358.000000 0.763700
16363.000000 0.766000
16368.000000 0.765000
16373.000000 0.761400
16378.000000 0.764200
16383.000000 0.763200
16388.000000 0.759200
16393.000000 0.762800
16398.000000 0.759200
16403.000000 0.759100
16408.000000 0.756000
16413.000000 0.757300
16418.000000 0.761900
16423.000000 0.762600
16428.000000 0.763300
16433.000000 0.760600
16438.000000 0.765500
16443.000000 0.766600
16448.000000 0.764100
16453.000000 0.768900
16458.000000 0.769500
16463.000000 0.770500
16468.000000 0.771300
16473.000000 0.771800
16478.000000 0.772800
16483.000000 0.776900
16488.000000 0.776600
16493.000000 0.773300
16498.000000 0.776800
16503.000000 0.773500
16508.000000 0.771100
16513.000000 0.775700
16518.000000 0.776400
16523.000000 0.770100
16528.000000 0.772700
16533.000000 0.778700
16538.000000 0.776200
16543.000000 0.788600
16548.000000 0.784700
16553.000000 0.787800
16558.000000 0.787100
16563.000000 0.789900
16568.000000 0.790600
16573.000000 0.785200
16578.000000 0.783300
16583.000000 0.770400
16588.000000 0.771900
16593.000000 0.772700
16598.000000 0.773600
16603.000000 0.774700
16608.000000 0.771500
16613.000000 0.776800
16618.000000 0.778000
16623.000000 0.778300
16628.000000 0.782700
16633.000000 0.778800
16638.000000 0.782700
16643.000000 0.789700
16648.000000 0.783700
16653.000000 0.786000
16658.000000 0.780800
16663.000000 0.782500
16668.000000 0.777900
16673.000000 0.780000
16678.000000 0.777500
16683.000000 0.772900
16688.000000 0.771700
16693.000000 0.773800
16698.000000 0.768700
16703.000000 0.764200
16708.000000 0.764700
16713.000000 0.768500
16718.000000 0.763600
16723.000000 0.763900
16728.000000 0.764300
16733.000000 0.760500
16738.000000 0.765700
16743.000000 0.769100
16748.000000 0.764500
16753.000000 0.768900
16758.000000 0.765000
16763.000000 0.764600
16768.000000 0.768400
16773.000000 0.764300
16778.000000 0.765000
16783.000000 0.765300
16788.000000 0.767700
16793.000000 0.764400
16798.000000 0.768200
16803.000000 0.766900
16808.000000 0.763400
16813.000000 0.766100
16818.000000 0.765500
16823.000000 0.765400
16828.000000 0.764000
16833.000000 0.759800
16838.000000 0.763100
16843.000000 0.755400
16848.000000 0.756400
16853.000000 0.760400
16858.000000 0.756900
16863.000000 0.755000
16868.000000 0.753200
16873.000000 0.755600
16878.000000 0.762100
16883.000000 0.773900
16888.000000 0.772400
16893.000000 0.771200
16898.000000 0.766300
16903.000000 0.773000
16908.000000 0.767600
16913.000000 0.766100
16918.000000 0.768400
16923.000000 0.755800
16928.000000 0.756100
16933.000000 0.761000
16938.000000 0.756900
16943.000000 0.757200
16948.000000 0.761200
16953.000000 0.758000
16958.000000 0.758900
16963.000000 0.766000
16968.000000 0.761400
16973.000000 0.761100
16978.000000 0.761600
16983.000000 0.761400
16988.000000 0.760900
16993.000000 0.760600
16998.000000 0.760700
17003.000000 0.764200
17008.000000 0.760200
17013.000000 0.759600
17018.000000 0.759200
17023.000000 0.763700
17028.000000 0.762700
17033.000000 0.758200
17038.000000 0.762000
17043.000000 0.767400
17048.000000 0.764800
17053.000000 0.762300
17058.000000 0.758900
17063.000000 0.753100
17068.000000 0.751600
17073.000000 0.749300
17078.000000 0.751300
17083.000000 0.735200
17088.000000 0.739400
17093.000000 0.740000
17098.000000 0.740100
17103.000000 0.740500
17108.000000 0.740600
17113.000000 0.743800
17118.000000 0.740300
17123.000000 0.740500
17128.000000 0.736400
17133.000000 0.741500
17138.000000 0.738600
17143.000000 0.742800
17148.000000 0.739800
17153.000000 0.744000
17158.000000 0.744200
17163.000000 0.744800
17168.000000 0.744400
17173.000000 0.744500
17178.000000 0.744800
17183.000000 0.744500
17188.000000 0.748300
17193.000000 0.744100
17198.000000 0.743600
17203.000000 0.744500
17208.000000 0.744000
17213.000000 0.743800
17218.000000 0.744400
17223.000000 0.740600
17228.000000 0.738200
17233.000000 0.740600
17238.000000 0.745200
17243.000000 0.746500
17248.000000 0.747500
17253.000000 0.751400
17258.000000 0.748300
17263.000000 0.752500
17268.000000 0.752100
17273.000000 0.749300
17278.000000 0.753200
17283.000000 0.756300
17288.000000 0.755900
17293.000000 0.751300
17298.000000 0.754500
17303.000000 0.750100
17308.000000 0.753100
17313.000000 0.752400
17318.000000 0.748200
17323.000000 0.751000
17328.000000 0.746800
17333.000000 0.750200
17338.000000 0.748900
17343.000000 0.744900
17348.000000 0.744700
17353.000000 0.744600
17358.000000 0.744600
17363.000000 0.741000
17368.000000 0.745300
17373.000000 0.745300
17378.000000 0.741500
17383.000000 0.748600
17388.000000 0.745000
17393.000000 0.748000
17398.000000 0.746900
17403.000000 0.742300
17408.000000 0.742400
17413.000000 0.742400
17418.000000 0.745600
17423.000000 0.747800
17428.000000 0.745800
17433.000000 0.746900
17438.000000 0.740500
17443.000000 0.738500
17448.000000 0.733000
17453.000000 0.731700
17458.000000 0.730800
17463.000000 0.723000
17468.000000 0.723700
17473.000000 0.728000
17478.000000 0.724100
17483.000000 0.731600
17488.000000 0.733700
17493.000000 0.727900
17498.000000 0.730200
17503.000000 0.721500
17508.000000 0.724300
17513.000000 0.723300
17518.000000 0.721900
17523.000000 0.714000
17528.000000 0.717900
17533.000000 0.717100
17538.000000 0.713300
17543.000000 0.717300
17548.000000 0.716200
17553.000000 0.715400
17558.000000 0.711600
17563.000000 0.714700
17568.000000 0.710200
17573.000000 0.710700
17578.000000 0.709600
17583.000000 0.716100
17588.000000 0.709900
17593.000000 0.711100
17598.000000 0.705700
17603.000000 0.703600
17608.000000 0.700700
17613.000000 0.701200
17618.000000 0.693900
17623.000000 0.681300
17628.000000 0.683600
17633.000000 0.680900
17638.000000 0.675900
17643.000000 0.685900
17648.000000 0.675100
17653.000000 0.669500
17658.000000 0.666200
17663.000000 0.658100
17668.000000 0.649300
17673.000000 0.639400
17678.000000 0.629300
17683.000000 0.615500
17688.000000 0.607600
17693.000000 0.592700
17698.000000 0.581400
17703.000000 0.567600
17708.000000 0.553800
17713.000000 0.542000
17718.000000 0.523800
17723.000000 0.509400
17728.000000 0.491600
17733.000000 0.476000
17738.000000 0.459000
17743.000000 0.442800
17748.000000 0.426100
17753.000000 0.408200
17758.000000 0.391100
17763.000000 0.377600
17768.000000 0.356200
17773.000000 0.337600
17778.000000 0.319400
17783.000000 0.302900
17788.000000 0.285100
17793.000000 0.269800
17798.000000 0.255800
17803.000000 0.237800
17808.000000 0.224000
17813.000000 0.210400
17818.000000 0.197400
17823.000000 0.185800
17828.000000 0.174500
17833.000000 0.162900
17838.000000 0.151100
17843.000000 0.141600
17848.000000 0.131600
17853.000000 0.123900
17858.000000 0.115600
17863.000000 0.107300
17868.000000 0.100100
17873.000000 0.092900
17878.000000 0.086000
17883.000000 0.081400
17888.000000 0.075800
17893.000000 0.070800
17898.000000 0.065000
17903.000000 0.060400
17908.000000 0.056300
17913.000000 0.052700
17918.000000 0.049400
17923.000000 0.046000
17928.000000 0.042700
17933.000000 0.040100
17938.000000 0.037500
17943.000000 0.035100
17948.000000 0.033200
17953.000000 0.031000
17958.000000 0.029100
17963.000000 0.027200
17968.000000 0.025500
17973.000000 0.023900
17978.000000 0.022600
17983.000000 0.021100
17988.000000 0.019800
17993.000000 0.018500
17998.000000 0.017200
18003.000000 0.016100
18008.000000 0.015400
18013.000000 0.014400
18018.000000 0.013500
18023.000000 0.012900
18028.000000 0.012000
18033.000000 0.011400
18038.000000 0.010700
18043.000000 0.010100
18048.000000 0.009600
18053.000000 0.008900
18058.000000 0.008400
18063.000000 0.007900
18068.000000 0.007500
18073.000000 0.007100
18078.000000 0.006700
18083.000000 0.006200
18088.000000 0.005900
18093.000000 0.005600
18098.000000 0.005200
18103.000000 0.005000
18108.000000 0.004800
18113.000000 0.004500
18118.000000 0.004300
18123.000000 0.004100
