#GMOS_S_r
#photon
#Gemini GMOS-S r band http://svo2.cab.inta-csic.es/theory/fps/index.php?id=Gemini/GMOS-S.r&&mode=browse&gname=Gemini&gname2=GMOS-S#filter
5466.000000 0.004000
5468.000000 0.005000
5470.000000 0.006000
5472.000000 0.007000
5474.000000 0.007000
5476.000000 0.009000
5478.000000 0.010000
5480.000000 0.011000
5482.000000 0.013000
5484.000000 0.015000
5486.000000 0.017000
5488.000000 0.019000
5490.000000 0.022000
5492.000000 0.024000
5494.000000 0.027000
5496.000000 0.030000
5498.000000 0.034000
5500.000000 0.037000
5502.000000 0.041000
5504.000000 0.045000
5506.000000 0.050000
5508.000000 0.055000
5510.000000 0.060000
5512.000000 0.065000
5514.000000 0.071000
5516.000000 0.076000
5518.000000 0.082000
5520.000000 0.089000
5522.000000 0.096000
5524.000000 0.103000
5526.000000 0.110000
5528.000000 0.117000
5530.000000 0.125000
5532.000000 0.133000
5534.000000 0.141000
5536.000000 0.149000
5538.000000 0.158000
5540.000000 0.166000
5542.000000 0.175000
5544.000000 0.184000
5546.000000 0.193000
5548.000000 0.203000
5550.000000 0.212000
5552.000000 0.222000
5554.000000 0.231000
5556.000000 0.241000
5558.000000 0.251000
5560.000000 0.260000
5562.000000 0.270000
5564.000000 0.280000
5566.000000 0.290000
5568.000000 0.299000
5570.000000 0.309000
5572.000000 0.319000
5574.000000 0.329000
5576.000000 0.338000
5578.000000 0.348000
5580.000000 0.357000
5582.000000 0.367000
5584.000000 0.375000
5586.000000 0.385000
5588.000000 0.393000
5590.000000 0.402000
5592.000000 0.411000
5594.000000 0.419000
5596.000000 0.427000
5598.000000 0.435000
5600.000000 0.443000
5602.000000 0.451000
5604.000000 0.458000
5606.000000 0.465000
5608.000000 0.473000
5610.000000 0.480000
5612.000000 0.486000
5614.000000 0.493000
5616.000000 0.500000
5618.000000 0.506000
5620.000000 0.512000
5622.000000 0.518000
5624.000000 0.524000
5626.000000 0.530000
5628.000000 0.536000
5630.000000 0.541000
5632.000000 0.547000
5634.000000 0.552000
5636.000000 0.558000
5638.000000 0.564000
5640.000000 0.569000
5642.000000 0.575000
5644.000000 0.580000
5646.000000 0.586000
5648.000000 0.591000
5650.000000 0.596000
5652.000000 0.601000
5654.000000 0.608000
5656.000000 0.613000
5658.000000 0.619000
5660.000000 0.625000
5662.000000 0.630000
5664.000000 0.635000
5666.000000 0.641000
5668.000000 0.647000
5670.000000 0.653000
5672.000000 0.658000
5674.000000 0.664000
5676.000000 0.670000
5678.000000 0.676000
5680.000000 0.681000
5682.000000 0.687000
5684.000000 0.692000
5686.000000 0.697000
5688.000000 0.702000
5690.000000 0.706000
5692.000000 0.711000
5694.000000 0.716000
5696.000000 0.720000
5698.000000 0.724000
5700.000000 0.728000
5702.000000 0.732000
5704.000000 0.736000
5706.000000 0.739000
5708.000000 0.742000
5710.000000 0.745000
5712.000000 0.748000
5714.000000 0.750000
5716.000000 0.752000
5718.000000 0.754000
5720.000000 0.756000
5722.000000 0.758000
5724.000000 0.760000
5726.000000 0.761000
5728.000000 0.762000
5730.000000 0.764000
5732.000000 0.765000
5734.000000 0.766000
5736.000000 0.767000
5738.000000 0.768000
5740.000000 0.770000
5742.000000 0.771000
5744.000000 0.772000
5746.000000 0.773000
5748.000000 0.775000
5750.000000 0.777000
5752.000000 0.779000
5754.000000 0.780000
5756.000000 0.783000
5758.000000 0.785000
5760.000000 0.787000
5762.000000 0.789000
5764.000000 0.793000
5766.000000 0.795000
5768.000000 0.798000
5770.000000 0.802000
5772.000000 0.805000
5774.000000 0.809000
5776.000000 0.812000
5778.000000 0.816000
5780.000000 0.820000
5782.000000 0.824000
5784.000000 0.828000
5786.000000 0.832000
5788.000000 0.835000
5790.000000 0.840000
5792.000000 0.843000
5794.000000 0.847000
5796.000000 0.851000
5798.000000 0.854000
5800.000000 0.858000
5802.000000 0.862000
5804.000000 0.865000
5806.000000 0.868000
5808.000000 0.870000
5810.000000 0.873000
5812.000000 0.875000
5814.000000 0.877000
5816.000000 0.878000
5818.000000 0.881000
5820.000000 0.882000
5822.000000 0.883000
5824.000000 0.884000
5826.000000 0.884000
5828.000000 0.885000
5830.000000 0.884000
5832.000000 0.885000
5834.000000 0.885000
5836.000000 0.884000
5838.000000 0.884000
5840.000000 0.883000
5842.000000 0.882000
5844.000000 0.882000
5846.000000 0.881000
5848.000000 0.880000
5850.000000 0.878000
5852.000000 0.877000
5854.000000 0.876000
5856.000000 0.875000
5858.000000 0.874000
5860.000000 0.874000
5862.000000 0.874000
5864.000000 0.874000
5866.000000 0.874000
5868.000000 0.873000
5870.000000 0.873000
5872.000000 0.873000
5874.000000 0.873000
5876.000000 0.874000
5878.000000 0.875000
5880.000000 0.875000
5882.000000 0.877000
5884.000000 0.877000
5886.000000 0.879000
5888.000000 0.880000
5890.000000 0.882000
5892.000000 0.883000
5894.000000 0.884000
5896.000000 0.886000
5898.000000 0.888000
5900.000000 0.890000
5902.000000 0.892000
5904.000000 0.893000
5906.000000 0.895000
5908.000000 0.897000
5910.000000 0.899000
5912.000000 0.900000
5914.000000 0.903000
5916.000000 0.903000
5918.000000 0.905000
5920.000000 0.907000
5922.000000 0.908000
5924.000000 0.909000
5926.000000 0.911000
5928.000000 0.911000
5930.000000 0.912000
5932.000000 0.912000
5934.000000 0.913000
5936.000000 0.913000
5938.000000 0.913000
5940.000000 0.913000
5942.000000 0.913000
5944.000000 0.912000
5946.000000 0.911000
5948.000000 0.911000
5950.000000 0.910000
5952.000000 0.910000
5954.000000 0.908000
5956.000000 0.907000
5958.000000 0.906000
5960.000000 0.905000
5962.000000 0.903000
5964.000000 0.903000
5966.000000 0.901000
5968.000000 0.900000
5970.000000 0.900000
5972.000000 0.898000
5974.000000 0.897000
5976.000000 0.896000
5978.000000 0.896000
5980.000000 0.895000
5982.000000 0.895000
5984.000000 0.895000
5986.000000 0.894000
5988.000000 0.894000
5990.000000 0.894000
5992.000000 0.894000
5994.000000 0.895000
5996.000000 0.895000
5998.000000 0.895000
6000.000000 0.896000
6002.000000 0.897000
6004.000000 0.898000
6006.000000 0.899000
6008.000000 0.899000
6010.000000 0.901000
6012.000000 0.902000
6014.000000 0.904000
6016.000000 0.906000
6018.000000 0.907000
6020.000000 0.909000
6022.000000 0.911000
6024.000000 0.912000
6026.000000 0.913000
6028.000000 0.915000
6030.000000 0.916000
6032.000000 0.918000
6034.000000 0.919000
6036.000000 0.921000
6038.000000 0.922000
6040.000000 0.922000
6042.000000 0.924000
6044.000000 0.925000
6046.000000 0.926000
6048.000000 0.927000
6050.000000 0.928000
6052.000000 0.929000
6054.000000 0.929000
6056.000000 0.930000
6058.000000 0.930000
6060.000000 0.931000
6062.000000 0.931000
6064.000000 0.931000
6066.000000 0.931000
6068.000000 0.931000
6070.000000 0.931000
6072.000000 0.931000
6074.000000 0.931000
6076.000000 0.930000
6078.000000 0.930000
6080.000000 0.930000
6082.000000 0.930000
6084.000000 0.930000
6086.000000 0.929000
6088.000000 0.929000
6090.000000 0.929000
6092.000000 0.929000
6094.000000 0.928000
6096.000000 0.928000
6098.000000 0.927000
6100.000000 0.927000
6102.000000 0.927000
6104.000000 0.927000
6106.000000 0.926000
6108.000000 0.926000
6110.000000 0.925000
6112.000000 0.925000
6114.000000 0.926000
6116.000000 0.925000
6118.000000 0.924000
6120.000000 0.924000
6122.000000 0.923000
6124.000000 0.923000
6126.000000 0.922000
6128.000000 0.923000
6130.000000 0.922000
6132.000000 0.922000
6134.000000 0.920000
6136.000000 0.920000
6138.000000 0.919000
6140.000000 0.918000
6142.000000 0.917000
6144.000000 0.915000
6146.000000 0.914000
6148.000000 0.912000
6150.000000 0.911000
6152.000000 0.909000
6154.000000 0.907000
6156.000000 0.905000
6158.000000 0.903000
6160.000000 0.901000
6162.000000 0.899000
6164.000000 0.897000
6166.000000 0.895000
6168.000000 0.891000
6170.000000 0.889000
6172.000000 0.887000
6174.000000 0.885000
6176.000000 0.882000
6178.000000 0.879000
6180.000000 0.877000
6182.000000 0.874000
6184.000000 0.872000
6186.000000 0.869000
6188.000000 0.867000
6190.000000 0.864000
6192.000000 0.862000
6194.000000 0.860000
6196.000000 0.858000
6198.000000 0.857000
6200.000000 0.854000
6202.000000 0.853000
6204.000000 0.852000
6206.000000 0.850000
6208.000000 0.849000
6210.000000 0.848000
6212.000000 0.848000
6214.000000 0.847000
6216.000000 0.847000
6218.000000 0.847000
6220.000000 0.847000
6222.000000 0.847000
6224.000000 0.848000
6226.000000 0.849000
6228.000000 0.849000
6230.000000 0.850000
6232.000000 0.853000
6234.000000 0.854000
6236.000000 0.855000
6238.000000 0.858000
6240.000000 0.860000
6242.000000 0.862000
6244.000000 0.864000
6246.000000 0.867000
6248.000000 0.870000
6250.000000 0.873000
6252.000000 0.876000
6254.000000 0.878000
6256.000000 0.881000
6258.000000 0.884000
6260.000000 0.887000
6262.000000 0.890000
6264.000000 0.893000
6266.000000 0.896000
6268.000000 0.899000
6270.000000 0.901000
6272.000000 0.904000
6274.000000 0.908000
6276.000000 0.910000
6278.000000 0.913000
6280.000000 0.915000
6282.000000 0.917000
6284.000000 0.919000
6286.000000 0.919000
6288.000000 0.921000
6290.000000 0.924000
6292.000000 0.925000
6294.000000 0.927000
6296.000000 0.927000
6298.000000 0.928000
6300.000000 0.928000
6302.000000 0.929000
6304.000000 0.929000
6306.000000 0.929000
6308.000000 0.929000
6310.000000 0.929000
6312.000000 0.929000
6314.000000 0.928000
6316.000000 0.928000
6318.000000 0.927000
6320.000000 0.927000
6322.000000 0.926000
6324.000000 0.925000
6326.000000 0.924000
6328.000000 0.923000
6330.000000 0.922000
6332.000000 0.922000
6334.000000 0.921000
6336.000000 0.920000
6338.000000 0.919000
6340.000000 0.919000
6342.000000 0.918000
6344.000000 0.918000
6346.000000 0.917000
6348.000000 0.917000
6350.000000 0.916000
6352.000000 0.916000
6354.000000 0.916000
6356.000000 0.917000
6358.000000 0.917000
6360.000000 0.916000
6362.000000 0.917000
6364.000000 0.917000
6366.000000 0.918000
6368.000000 0.918000
6370.000000 0.919000
6372.000000 0.919000
6374.000000 0.920000
6376.000000 0.921000
6378.000000 0.922000
6380.000000 0.923000
6382.000000 0.924000
6384.000000 0.925000
6386.000000 0.926000
6388.000000 0.926000
6390.000000 0.927000
6392.000000 0.928000
6394.000000 0.929000
6396.000000 0.930000
6398.000000 0.930000
6400.000000 0.930000
6402.000000 0.932000
6404.000000 0.931000
6406.000000 0.932000
6408.000000 0.932000
6410.000000 0.933000
6412.000000 0.932000
6414.000000 0.932000
6416.000000 0.932000
6418.000000 0.931000
6420.000000 0.931000
6422.000000 0.931000
6424.000000 0.929000
6426.000000 0.927000
6428.000000 0.927000
6430.000000 0.926000
6432.000000 0.924000
6434.000000 0.923000
6436.000000 0.921000
6438.000000 0.920000
6440.000000 0.918000
6442.000000 0.916000
6444.000000 0.915000
6446.000000 0.913000
6448.000000 0.911000
6450.000000 0.909000
6452.000000 0.907000
6454.000000 0.905000
6456.000000 0.904000
6458.000000 0.901000
6460.000000 0.900000
6462.000000 0.897000
6464.000000 0.896000
6466.000000 0.894000
6468.000000 0.893000
6470.000000 0.891000
6472.000000 0.890000
6474.000000 0.889000
6476.000000 0.888000
6478.000000 0.886000
6480.000000 0.886000
6482.000000 0.885000
6484.000000 0.885000
6486.000000 0.884000
6488.000000 0.883000
6490.000000 0.883000
6492.000000 0.883000
6494.000000 0.882000
6496.000000 0.883000
6498.000000 0.883000
6500.000000 0.883000
6502.000000 0.883000
6504.000000 0.883000
6506.000000 0.884000
6508.000000 0.885000
6510.000000 0.887000
6512.000000 0.886000
6514.000000 0.888000
6516.000000 0.889000
6518.000000 0.890000
6520.000000 0.891000
6522.000000 0.892000
6524.000000 0.893000
6526.000000 0.894000
6528.000000 0.895000
6530.000000 0.896000
6532.000000 0.898000
6534.000000 0.898000
6536.000000 0.899000
6538.000000 0.901000
6540.000000 0.902000
6542.000000 0.903000
6544.000000 0.904000
6546.000000 0.905000
6548.000000 0.905000
6550.000000 0.905000
6552.000000 0.906000
6554.000000 0.907000
6556.000000 0.908000
6558.000000 0.908000
6560.000000 0.909000
6562.000000 0.909000
6564.000000 0.909000
6566.000000 0.910000
6568.000000 0.910000
6570.000000 0.910000
6572.000000 0.911000
6574.000000 0.911000
6576.000000 0.910000
6578.000000 0.911000
6580.000000 0.911000
6582.000000 0.911000
6584.000000 0.911000
6586.000000 0.911000
6588.000000 0.911000
6590.000000 0.910000
6592.000000 0.911000
6594.000000 0.912000
6596.000000 0.911000
6598.000000 0.912000
6600.000000 0.912000
6602.000000 0.912000
6604.000000 0.913000
6606.000000 0.913000
6608.000000 0.914000
6610.000000 0.915000
6612.000000 0.915000
6614.000000 0.916000
6616.000000 0.916000
6618.000000 0.917000
6620.000000 0.918000
6622.000000 0.918000
6624.000000 0.919000
6626.000000 0.921000
6628.000000 0.921000
6630.000000 0.922000
6632.000000 0.923000
6634.000000 0.925000
6636.000000 0.926000
6638.000000 0.926000
6640.000000 0.927000
6642.000000 0.929000
6644.000000 0.930000
6646.000000 0.931000
6648.000000 0.931000
6650.000000 0.932000
6652.000000 0.933000
6654.000000 0.934000
6656.000000 0.935000
6658.000000 0.936000
6660.000000 0.936000
6662.000000 0.936000
6664.000000 0.936000
6666.000000 0.937000
6668.000000 0.937000
6670.000000 0.937000
6672.000000 0.937000
6674.000000 0.936000
6676.000000 0.936000
6678.000000 0.936000
6680.000000 0.935000
6682.000000 0.934000
6684.000000 0.933000
6686.000000 0.932000
6688.000000 0.932000
6690.000000 0.931000
6692.000000 0.929000
6694.000000 0.929000
6696.000000 0.927000
6698.000000 0.926000
6700.000000 0.925000
6702.000000 0.923000
6704.000000 0.922000
6706.000000 0.920000
6708.000000 0.919000
6710.000000 0.918000
6712.000000 0.916000
6714.000000 0.915000
6716.000000 0.913000
6718.000000 0.912000
6720.000000 0.910000
6722.000000 0.909000
6724.000000 0.908000
6726.000000 0.907000
6728.000000 0.906000
6730.000000 0.906000
6732.000000 0.905000
6734.000000 0.904000
6736.000000 0.903000
6738.000000 0.902000
6740.000000 0.902000
6742.000000 0.902000
6744.000000 0.901000
6746.000000 0.902000
6748.000000 0.902000
6750.000000 0.902000
6752.000000 0.902000
6754.000000 0.903000
6756.000000 0.902000
6758.000000 0.902000
6760.000000 0.903000
6762.000000 0.904000
6764.000000 0.905000
6766.000000 0.907000
6768.000000 0.907000
6770.000000 0.908000
6772.000000 0.909000
6774.000000 0.909000
6776.000000 0.910000
6778.000000 0.911000
6780.000000 0.911000
6782.000000 0.913000
6784.000000 0.914000
6786.000000 0.915000
6788.000000 0.917000
6790.000000 0.918000
6792.000000 0.920000
6794.000000 0.920000
6796.000000 0.922000
6798.000000 0.922000
6800.000000 0.923000
6802.000000 0.924000
6804.000000 0.924000
6806.000000 0.925000
6808.000000 0.926000
6810.000000 0.927000
6812.000000 0.928000
6814.000000 0.928000
6816.000000 0.929000
6818.000000 0.929000
6820.000000 0.929000
6822.000000 0.929000
6824.000000 0.929000
6826.000000 0.930000
6828.000000 0.930000
6830.000000 0.930000
6832.000000 0.930000
6834.000000 0.929000
6836.000000 0.930000
6838.000000 0.930000
6840.000000 0.930000
6842.000000 0.929000
6844.000000 0.930000
6846.000000 0.929000
6848.000000 0.929000
6850.000000 0.930000
6852.000000 0.929000
6854.000000 0.929000
6856.000000 0.929000
6858.000000 0.929000
6860.000000 0.930000
6862.000000 0.929000
6864.000000 0.931000
6866.000000 0.930000
6868.000000 0.930000
6870.000000 0.931000
6872.000000 0.931000
6874.000000 0.932000
6876.000000 0.932000
6878.000000 0.932000
6880.000000 0.933000
6882.000000 0.933000
6884.000000 0.934000
6886.000000 0.934000
6888.000000 0.935000
6890.000000 0.935000
6892.000000 0.935000
6894.000000 0.936000
6896.000000 0.937000
6898.000000 0.937000
6900.000000 0.937000
6902.000000 0.938000
6904.000000 0.938000
6906.000000 0.938000
6908.000000 0.939000
6910.000000 0.939000
6912.000000 0.939000
6914.000000 0.939000
6916.000000 0.939000
6918.000000 0.939000
6920.000000 0.939000
6922.000000 0.940000
6924.000000 0.939000
6926.000000 0.940000
6928.000000 0.940000
6930.000000 0.940000
6932.000000 0.939000
6934.000000 0.939000
6936.000000 0.939000
6938.000000 0.938000
6940.000000 0.938000
6942.000000 0.938000
6944.000000 0.938000
6946.000000 0.937000
6948.000000 0.936000
6950.000000 0.935000
6952.000000 0.934000
6954.000000 0.933000
6956.000000 0.932000
6958.000000 0.930000
6960.000000 0.928000
6962.000000 0.925000
6964.000000 0.922000
6966.000000 0.918000
6968.000000 0.915000
6970.000000 0.910000
6972.000000 0.905000
6974.000000 0.897000
6976.000000 0.891000
6978.000000 0.882000
6980.000000 0.873000
6982.000000 0.863000
6984.000000 0.852000
6986.000000 0.839000
6988.000000 0.826000
6990.000000 0.811000
6992.000000 0.794000
6994.000000 0.778000
6996.000000 0.759000
6998.000000 0.740000
7000.000000 0.720000
7002.000000 0.699000
7004.000000 0.677000
7006.000000 0.654000
7008.000000 0.631000
7010.000000 0.607000
7012.000000 0.583000
7014.000000 0.560000
7016.000000 0.537000
7018.000000 0.513000
7020.000000 0.490000
7022.000000 0.468000
7024.000000 0.446000
7026.000000 0.424000
7028.000000 0.403000
7030.000000 0.383000
7032.000000 0.363000
7034.000000 0.344000
7036.000000 0.327000
7038.000000 0.309000
7040.000000 0.293000
7042.000000 0.278000
7044.000000 0.263000
7046.000000 0.249000
7048.000000 0.236000
7050.000000 0.224000
7052.000000 0.212000
7054.000000 0.202000
7056.000000 0.191000
7058.000000 0.182000
7060.000000 0.173000
7062.000000 0.164000
7064.000000 0.157000
7066.000000 0.149000
7068.000000 0.142000
7070.000000 0.136000
7072.000000 0.129000
7074.000000 0.124000
7076.000000 0.119000
7078.000000 0.114000
7080.000000 0.109000
7082.000000 0.105000
7084.000000 0.101000
7086.000000 0.097000
7088.000000 0.093000
7090.000000 0.090000
7092.000000 0.087000
7094.000000 0.084000
7096.000000 0.081000
7098.000000 0.078000
7100.000000 0.076000
7102.000000 0.073000
7104.000000 0.071000
7106.000000 0.069000
7108.000000 0.067000
7110.000000 0.065000
7112.000000 0.064000
7114.000000 0.062000
7116.000000 0.060000
7118.000000 0.059000
7120.000000 0.058000
7122.000000 0.056000
7124.000000 0.055000
7126.000000 0.054000
7128.000000 0.052000
7130.000000 0.051000
7132.000000 0.050000
7134.000000 0.049000
7136.000000 0.048000
7138.000000 0.047000
7140.000000 0.046000
7142.000000 0.045000
7144.000000 0.044000
7146.000000 0.043000
7148.000000 0.042000
7150.000000 0.040000
7152.000000 0.039000
7154.000000 0.038000
7156.000000 0.037000
7158.000000 0.036000
7160.000000 0.035000
7162.000000 0.034000
7164.000000 0.033000
7166.000000 0.031000
7168.000000 0.030000
7170.000000 0.029000
7172.000000 0.028000
7174.000000 0.027000
7176.000000 0.025000
7178.000000 0.024000
7180.000000 0.023000
7182.000000 0.022000
7184.000000 0.021000
7186.000000 0.020000
7188.000000 0.019000
7190.000000 0.018000
7192.000000 0.017000
7194.000000 0.016000
7196.000000 0.015000
7198.000000 0.014000
7200.000000 0.014000
7202.000000 0.013000
7204.000000 0.012000
7206.000000 0.011000
7208.000000 0.011000
7210.000000 0.010000
7212.000000 0.009000
7214.000000 0.009000
7216.000000 0.008000
7218.000000 0.008000
7220.000000 0.007000
7222.000000 0.007000
7224.000000 0.007000
7226.000000 0.006000
7228.000000 0.006000
7230.000000 0.006000
7232.000000 0.005000
7234.000000 0.005000
7236.000000 0.005000
7238.000000 0.004000
7240.000000 0.004000
7242.000000 0.004000
7244.000000 0.004000
